# Zvolene hodnoty h0 = 10, v0 = 60 m/s a alpha0 = 45°
# t[s]   x[m]   y[m]    vx[m/s]   vy[m/s]   v[m/s]
0.00     0.00   10.00    42.43    42.43      60.00
0.01     0.42   10.42    42.43    42.33      60.00
0.02     0.85   10.85    42.43    42.23      60.00
0.03     1.27   11.27    42.43    42.13      60.00
0.04     1.70   11.69    42.43    42.03      60.00
0.05     2.12   12.11    42.43    41.94      60.00
0.06     2.55   12.53    42.43    41.84      60.00
0.07     2.97   12.95    42.43    41.74      60.00
0.08     3.39   13.36    42.43    41.64      60.00
0.09     3.82   13.78    42.43    41.54      60.00
0.10     4.24   14.19    42.43    41.44      60.00
0.11     4.67   14.61    42.43    41.35      60.00
0.12     5.09   15.02    42.43    41.25      60.00
0.13     5.52   15.43    42.43    41.15      60.00
0.14     5.94   15.84    42.43    41.05      60.00
0.15     6.36   16.25    42.43    40.95      60.00
0.16     6.79   16.66    42.43    40.86      60.00
0.17     7.21   17.07    42.43    40.76      60.00
0.18     7.64   17.48    42.43    40.66      60.00
0.19     8.06   17.88    42.43    40.56      60.00
0.20     8.49   18.29    42.43    40.46      60.00
0.21     8.91   18.69    42.43    40.37      60.00
0.22     9.33   19.10    42.43    40.27      60.00
0.23     9.76   19.50    42.43    40.17      60.00
0.24     10.18   19.90    42.43    40.07      60.00
0.25     10.61   20.30    42.43    39.97      60.00
0.26     11.03   20.70    42.43    39.88      60.00
0.27     11.46   21.10    42.43    39.78      60.00
0.28     11.88   21.49    42.43    39.68      60.00
0.29     12.30   21.89    42.43    39.58      60.00
0.30     12.73   22.29    42.43    39.48      60.00
0.31     13.15   22.68    42.43    39.39      60.00
0.32     13.58   23.07    42.43    39.29      60.00
0.33     14.00   23.47    42.43    39.19      60.00
0.34     14.43   23.86    42.43    39.09      60.00
0.35     14.85   24.25    42.43    38.99      60.00
0.36     15.27   24.64    42.43    38.90      60.00
0.37     15.70   25.03    42.43    38.80      60.00
0.38     16.12   25.41    42.43    38.70      60.00
0.39     16.55   25.80    42.43    38.60      60.00
0.40     16.97   26.19    42.43    38.50      60.00
0.41     17.40   26.57    42.43    38.40      60.00
0.42     17.82   26.95    42.43    38.31      60.00
0.43     18.24   27.34    42.43    38.21      60.00
0.44     18.67   27.72    42.43    38.11      60.00
0.45     19.09   28.10    42.43    38.01      60.00
0.46     19.52   28.48    42.43    37.91      60.00
0.47     19.94   28.86    42.43    37.82      60.00
0.48     20.37   29.23    42.43    37.72      60.00
0.49     20.79   29.61    42.43    37.62      60.00
0.50     21.21   29.99    42.43    37.52      60.00
0.51     21.64   30.36    42.43    37.42      60.00
0.52     22.06   30.74    42.43    37.33      60.00
0.53     22.49   31.11    42.43    37.23      60.00
0.54     22.91   31.48    42.43    37.13      60.00
0.55     23.34   31.85    42.43    37.03      60.00
0.56     23.76   32.22    42.43    36.93      60.00
0.57     24.18   32.59    42.43    36.84      60.00
0.58     24.61   32.96    42.43    36.74      60.00
0.59     25.03   33.32    42.43    36.64      60.00
0.60     25.46   33.69    42.43    36.54      60.00
0.61     25.88   34.05    42.43    36.44      60.00
0.62     26.30   34.42    42.43    36.35      60.00
0.63     26.73   34.78    42.43    36.25      60.00
0.64     27.15   35.14    42.43    36.15      60.00
0.65     27.58   35.50    42.43    36.05      60.00
0.66     28.00   35.86    42.43    35.95      60.00
0.67     28.43   36.22    42.43    35.85      60.00
0.68     28.85   36.58    42.43    35.76      60.00
0.69     29.27   36.94    42.43    35.66      60.00
0.70     29.70   37.30    42.43    35.56      60.00
0.71     30.12   37.65    42.43    35.46      60.00
0.72     30.55   38.00    42.43    35.36      60.00
0.73     30.97   38.36    42.43    35.27      60.00
0.74     31.40   38.71    42.43    35.17      60.00
0.75     31.82   39.06    42.43    35.07      60.00
0.76     32.24   39.41    42.43    34.97      60.00
0.77     32.67   39.76    42.43    34.87      60.00
0.78     33.09   40.11    42.43    34.78      60.00
0.79     33.52   40.46    42.43    34.68      60.00
0.80     33.94   40.80    42.43    34.58      60.00
0.81     34.37   41.15    42.43    34.48      60.00
0.82     34.79   41.49    42.43    34.38      60.00
0.83     35.21   41.84    42.43    34.29      60.00
0.84     35.64   42.18    42.43    34.19      60.00
0.85     36.06   42.52    42.43    34.09      60.00
0.86     36.49   42.86    42.43    33.99      60.00
0.87     36.91   43.20    42.43    33.89      60.00
0.88     37.34   43.54    42.43    33.80      60.00
0.89     37.76   43.87    42.43    33.70      60.00
0.90     38.18   44.21    42.43    33.60      60.00
0.91     38.61   44.55    42.43    33.50      60.00
0.92     39.03   44.88    42.43    33.40      60.00
0.93     39.46   45.21    42.43    33.31      60.00
0.94     39.88   45.55    42.43    33.21      60.00
0.95     40.31   45.88    42.43    33.11      60.00
0.96     40.73   46.21    42.43    33.01      60.00
0.97     41.15   46.54    42.43    32.91      60.00
0.98     41.58   46.87    42.43    32.81      60.00
0.99     42.00   47.20    42.43    32.72      60.00
1.00     42.43   47.52    42.43    32.62      60.00
1.01     42.85   47.85    42.43    32.52      60.00
1.02     43.28   48.17    42.43    32.42      60.00
1.03     43.70   48.50    42.43    32.32      60.00
1.04     44.12   48.82    42.43    32.23      60.00
1.05     44.55   49.14    42.43    32.13      60.00
1.06     44.97   49.46    42.43    32.03      60.00
1.07     45.40   49.78    42.43    31.93      60.00
1.08     45.82   50.10    42.43    31.83      60.00
1.09     46.25   50.42    42.43    31.74      60.00
1.10     46.67   50.73    42.43    31.64      60.00
1.11     47.09   51.05    42.43    31.54      60.00
1.12     47.52   51.37    42.43    31.44      60.00
1.13     47.94   51.68    42.43    31.34      60.00
1.14     48.37   51.99    42.43    31.25      60.00
1.15     48.79   52.30    42.43    31.15      60.00
1.16     49.22   52.62    42.43    31.05      60.00
1.17     49.64   52.93    42.43    30.95      60.00
1.18     50.06   53.23    42.43    30.85      60.00
1.19     50.49   53.54    42.43    30.76      60.00
1.20     50.91   53.85    42.43    30.66      60.00
1.21     51.34   54.16    42.43    30.56      60.00
1.22     51.76   54.46    42.43    30.46      60.00
1.23     52.19   54.77    42.43    30.36      60.00
1.24     52.61   55.07    42.43    30.27      60.00
1.25     53.03   55.37    42.43    30.17      60.00
1.26     53.46   55.67    42.43    30.07      60.00
1.27     53.88   55.97    42.43    29.97      60.00
1.28     54.31   56.27    42.43    29.87      60.00
1.29     54.73   56.57    42.43    29.77      60.00
1.30     55.16   56.87    42.43    29.68      60.00
1.31     55.58   57.16    42.43    29.58      60.00
1.32     56.00   57.46    42.43    29.48      60.00
1.33     56.43   57.75    42.43    29.38      60.00
1.34     56.85   58.05    42.43    29.28      60.00
1.35     57.28   58.34    42.43    29.19      60.00
1.36     57.70   58.63    42.43    29.09      60.00
1.37     58.13   58.92    42.43    28.99      60.00
1.38     58.55   59.21    42.43    28.89      60.00
1.39     58.97   59.50    42.43    28.79      60.00
1.40     59.40   59.79    42.43    28.70      60.00
1.41     59.82   60.07    42.43    28.60      60.00
1.42     60.25   60.36    42.43    28.50      60.00
1.43     60.67   60.64    42.43    28.40      60.00
1.44     61.10   60.93    42.43    28.30      60.00
1.45     61.52   61.21    42.43    28.21      60.00
1.46     61.94   61.49    42.43    28.11      60.00
1.47     62.37   61.77    42.43    28.01      60.00
1.48     62.79   62.05    42.43    27.91      60.00
1.49     63.22   62.33    42.43    27.81      60.00
1.50     63.64   62.61    42.43    27.72      60.00
1.51     64.07   62.88    42.43    27.62      60.00
1.52     64.49   63.16    42.43    27.52      60.00
1.53     64.91   63.43    42.43    27.42      60.00
1.54     65.34   63.71    42.43    27.32      60.00
1.55     65.76   63.98    42.43    27.23      60.00
1.56     66.19   64.25    42.43    27.13      60.00
1.57     66.61   64.52    42.43    27.03      60.00
1.58     67.04   64.79    42.43    26.93      60.00
1.59     67.46   65.06    42.43    26.83      60.00
1.60     67.88   65.33    42.43    26.73      60.00
1.61     68.31   65.59    42.43    26.64      60.00
1.62     68.73   65.86    42.43    26.54      60.00
1.63     69.16   66.13    42.43    26.44      60.00
1.64     69.58   66.39    42.43    26.34      60.00
1.65     70.01   66.65    42.43    26.24      60.00
1.66     70.43   66.91    42.43    26.15      60.00
1.67     70.85   67.18    42.43    26.05      60.00
1.68     71.28   67.44    42.43    25.95      60.00
1.69     71.70   67.69    42.43    25.85      60.00
1.70     72.13   67.95    42.43    25.75      60.00
1.71     72.55   68.21    42.43    25.66      60.00
1.72     72.98   68.47    42.43    25.56      60.00
1.73     73.40   68.72    42.43    25.46      60.00
1.74     73.82   68.97    42.43    25.36      60.00
1.75     74.25   69.23    42.43    25.26      60.00
1.76     74.67   69.48    42.43    25.17      60.00
1.77     75.10   69.73    42.43    25.07      60.00
1.78     75.52   69.98    42.43    24.97      60.00
1.79     75.94   70.23    42.43    24.87      60.00
1.80     76.37   70.48    42.43    24.77      60.00
1.81     76.79   70.73    42.43    24.68      60.00
1.82     77.22   70.97    42.43    24.58      60.00
1.83     77.64   71.22    42.43    24.48      60.00
1.84     78.07   71.46    42.43    24.38      60.00
1.85     78.49   71.71    42.43    24.28      60.00
1.86     78.91   71.95    42.43    24.19      60.00
1.87     79.34   72.19    42.43    24.09      60.00
1.88     79.76   72.43    42.43    23.99      60.00
1.89     80.19   72.67    42.43    23.89      60.00
1.90     80.61   72.91    42.43    23.79      60.00
1.91     81.04   73.14    42.43    23.69      60.00
1.92     81.46   73.38    42.43    23.60      60.00
1.93     81.88   73.62    42.43    23.50      60.00
1.94     82.31   73.85    42.43    23.40      60.00
1.95     82.73   74.08    42.43    23.30      60.00
1.96     83.16   74.32    42.43    23.20      60.00
1.97     83.58   74.55    42.43    23.11      60.00
1.98     84.01   74.78    42.43    23.01      60.00
1.99     84.43   75.01    42.43    22.91      60.00
2.00     84.85   75.24    42.43    22.81      60.00
2.01     85.28   75.47    42.43    22.71      60.00
2.02     85.70   75.69    42.43    22.62      60.00
2.03     86.13   75.92    42.43    22.52      60.00
2.04     86.55   76.14    42.43    22.42      60.00
2.05     86.98   76.37    42.43    22.32      60.00
2.06     87.40   76.59    42.43    22.22      60.00
2.07     87.82   76.81    42.43    22.13      60.00
2.08     88.25   77.03    42.43    22.03      60.00
2.09     88.67   77.25    42.43    21.93      60.00
2.10     89.10   77.47    42.43    21.83      60.00
2.11     89.52   77.69    42.43    21.73      60.00
2.12     89.95   77.90    42.43    21.64      60.00
2.13     90.37   78.12    42.43    21.54      60.00
2.14     90.79   78.34    42.43    21.44      60.00
2.15     91.22   78.55    42.43    21.34      60.00
2.16     91.64   78.76    42.43    21.24      60.00
2.17     92.07   78.97    42.43    21.15      60.00
2.18     92.49   79.18    42.43    21.05      60.00
2.19     92.92   79.39    42.43    20.95      60.00
2.20     93.34   79.60    42.43    20.85      60.00
2.21     93.76   79.81    42.43    20.75      60.00
2.22     94.19   80.02    42.43    20.65      60.00
2.23     94.61   80.22    42.43    20.56      60.00
2.24     95.04   80.43    42.43    20.46      60.00
2.25     95.46   80.63    42.43    20.36      60.00
2.26     95.89   80.84    42.43    20.26      60.00
2.27     96.31   81.04    42.43    20.16      60.00
2.28     96.73   81.24    42.43    20.07      60.00
2.29     97.16   81.44    42.43    19.97      60.00
2.30     97.58   81.64    42.43    19.87      60.00
2.31     98.01   81.84    42.43    19.77      60.00
2.32     98.43   82.04    42.43    19.67      60.00
2.33     98.86   82.23    42.43    19.58      60.00
2.34     99.28   82.43    42.43    19.48      60.00
2.35     99.70   82.62    42.43    19.38      60.00
2.36     100.13   82.81    42.43    19.28      60.00
2.37     100.55   83.01    42.43    19.18      60.00
2.38     100.98   83.20    42.43    19.09      60.00
2.39     101.40   83.39    42.43    18.99      60.00
2.40     101.83   83.58    42.43    18.89      60.00
2.41     102.25   83.77    42.43    18.79      60.00
2.42     102.67   83.95    42.43    18.69      60.00
2.43     103.10   84.14    42.43    18.60      60.00
2.44     103.52   84.33    42.43    18.50      60.00
2.45     103.95   84.51    42.43    18.40      60.00
2.46     104.37   84.69    42.43    18.30      60.00
2.47     104.80   84.88    42.43    18.20      60.00
2.48     105.22   85.06    42.43    18.10      60.00
2.49     105.64   85.24    42.43    18.01      60.00
2.50     106.07   85.42    42.43    17.91      60.00
2.51     106.49   85.60    42.43    17.81      60.00
2.52     106.92   85.77    42.43    17.71      60.00
2.53     107.34   85.95    42.43    17.61      60.00
2.54     107.77   86.13    42.43    17.52      60.00
2.55     108.19   86.30    42.43    17.42      60.00
2.56     108.61   86.47    42.43    17.32      60.00
2.57     109.04   86.65    42.43    17.22      60.00
2.58     109.46   86.82    42.43    17.12      60.00
2.59     109.89   86.99    42.43    17.03      60.00
2.60     110.31   87.16    42.43    16.93      60.00
2.61     110.74   87.33    42.43    16.83      60.00
2.62     111.16   87.50    42.43    16.73      60.00
2.63     111.58   87.66    42.43    16.63      60.00
2.64     112.01   87.83    42.43    16.54      60.00
2.65     112.43   87.99    42.43    16.44      60.00
2.66     112.86   88.16    42.43    16.34      60.00
2.67     113.28   88.32    42.43    16.24      60.00
2.68     113.71   88.48    42.43    16.14      60.00
2.69     114.13   88.64    42.43    16.05      60.00
2.70     114.55   88.80    42.43    15.95      60.00
2.71     114.98   88.96    42.43    15.85      60.00
2.72     115.40   89.12    42.43    15.75      60.00
2.73     115.83   89.28    42.43    15.65      60.00
2.74     116.25   89.43    42.43    15.56      60.00
2.75     116.68   89.59    42.43    15.46      60.00
2.76     117.10   89.74    42.43    15.36      60.00
2.77     117.52   89.90    42.43    15.26      60.00
2.78     117.95   90.05    42.43    15.16      60.00
2.79     118.37   90.20    42.43    15.06      60.00
2.80     118.80   90.35    42.43    14.97      60.00
2.81     119.22   90.50    42.43    14.87      60.00
2.82     119.65   90.65    42.43    14.77      60.00
2.83     120.07   90.79    42.43    14.67      60.00
2.84     120.49   90.94    42.43    14.57      60.00
2.85     120.92   91.09    42.43    14.48      60.00
2.86     121.34   91.23    42.43    14.38      60.00
2.87     121.77   91.37    42.43    14.28      60.00
2.88     122.19   91.52    42.43    14.18      60.00
2.89     122.62   91.66    42.43    14.08      60.00
2.90     123.04   91.80    42.43    13.99      60.00
2.91     123.46   91.94    42.43    13.89      60.00
2.92     123.89   92.07    42.43    13.79      60.00
2.93     124.31   92.21    42.43    13.69      60.00
2.94     124.74   92.35    42.43    13.59      60.00
2.95     125.16   92.48    42.43    13.50      60.00
2.96     125.58   92.62    42.43    13.40      60.00
2.97     126.01   92.75    42.43    13.30      60.00
2.98     126.43   92.88    42.43    13.20      60.00
2.99     126.86   93.02    42.43    13.10      60.00
3.00     127.28   93.15    42.43    13.01      60.00
3.01     127.71   93.28    42.43    12.91      60.00
3.02     128.13   93.40    42.43    12.81      60.00
3.03     128.55   93.53    42.43    12.71      60.00
3.04     128.98   93.66    42.43    12.61      60.00
3.05     129.40   93.78    42.43    12.52      60.00
3.06     129.83   93.91    42.43    12.42      60.00
3.07     130.25   94.03    42.43    12.32      60.00
3.08     130.68   94.16    42.43    12.22      60.00
3.09     131.10   94.28    42.43    12.12      60.00
3.10     131.52   94.40    42.43    12.02      60.00
3.11     131.95   94.52    42.43    11.93      60.00
3.12     132.37   94.64    42.43    11.83      60.00
3.13     132.80   94.75    42.43    11.73      60.00
3.14     133.22   94.87    42.43    11.63      60.00
3.15     133.65   94.99    42.43    11.53      60.00
3.16     134.07   95.10    42.43    11.44      60.00
3.17     134.49   95.22    42.43    11.34      60.00
3.18     134.92   95.33    42.43    11.24      60.00
3.19     135.34   95.44    42.43    11.14      60.00
3.20     135.77   95.55    42.43    11.04      60.00
3.21     136.19   95.66    42.43    10.95      60.00
3.22     136.62   95.77    42.43    10.85      60.00
3.23     137.04   95.88    42.43    10.75      60.00
3.24     137.46   95.99    42.43    10.65      60.00
3.25     137.89   96.09    42.43    10.55      60.00
3.26     138.31   96.20    42.43    10.46      60.00
3.27     138.74   96.30    42.43    10.36      60.00
3.28     139.16   96.40    42.43    10.26      60.00
3.29     139.59   96.51    42.43    10.16      60.00
3.30     140.01   96.61    42.43    10.06      60.00
3.31     140.43   96.71    42.43    9.97      60.00
3.32     140.86   96.81    42.43    9.87      60.00
3.33     141.28   96.90    42.43    9.77      60.00
3.34     141.71   97.00    42.43    9.67      60.00
3.35     142.13   97.10    42.43    9.57      60.00
3.36     142.56   97.19    42.43    9.48      60.00
3.37     142.98   97.29    42.43    9.38      60.00
3.38     143.40   97.38    42.43    9.28      60.00
3.39     143.83   97.47    42.43    9.18      60.00
3.40     144.25   97.56    42.43    9.08      60.00
3.41     144.68   97.65    42.43    8.98      60.00
3.42     145.10   97.74    42.43    8.89      60.00
3.43     145.53   97.83    42.43    8.79      60.00
3.44     145.95   97.92    42.43    8.69      60.00
3.45     146.37   98.01    42.43    8.59      60.00
3.46     146.80   98.09    42.43    8.49      60.00
3.47     147.22   98.18    42.43    8.40      60.00
3.48     147.65   98.26    42.43    8.30      60.00
3.49     148.07   98.34    42.43    8.20      60.00
3.50     148.50   98.42    42.43    8.10      60.00
3.51     148.92   98.50    42.43    8.00      60.00
3.52     149.34   98.58    42.43    7.91      60.00
3.53     149.77   98.66    42.43    7.81      60.00
3.54     150.19   98.74    42.43    7.71      60.00
3.55     150.62   98.82    42.43    7.61      60.00
3.56     151.04   98.89    42.43    7.51      60.00
3.57     151.47   98.97    42.43    7.42      60.00
3.58     151.89   99.04    42.43    7.32      60.00
3.59     152.31   99.11    42.43    7.22      60.00
3.60     152.74   99.18    42.43    7.12      60.00
3.61     153.16   99.26    42.43    7.02      60.00
3.62     153.59   99.32    42.43    6.93      60.00
3.63     154.01   99.39    42.43    6.83      60.00
3.64     154.44   99.46    42.43    6.73      60.00
3.65     154.86   99.53    42.43    6.63      60.00
3.66     155.28   99.59    42.43    6.53      60.00
3.67     155.71   99.66    42.43    6.44      60.00
3.68     156.13   99.72    42.43    6.34      60.00
3.69     156.56   99.79    42.43    6.24      60.00
3.70     156.98   99.85    42.43    6.14      60.00
3.71     157.41   99.91    42.43    6.04      60.00
3.72     157.83   99.97    42.43    5.94      60.00
3.73     158.25   100.03    42.43    5.85      60.00
3.74     158.68   100.09    42.43    5.75      60.00
3.75     159.10   100.14    42.43    5.65      60.00
3.76     159.53   100.20    42.43    5.55      60.00
3.77     159.95   100.25    42.43    5.45      60.00
3.78     160.38   100.31    42.43    5.36      60.00
3.79     160.80   100.36    42.43    5.26      60.00
3.80     161.22   100.41    42.43    5.16      60.00
